Financials,2007-12-31,2008-06-30,2008-09-30,2008-12-31,2009-03-31,2009-06-30,2009-09-30,2009-12-31,2010-03-31,2010-06-30,2010-09-30,2010-12-31,2011-03-31,2011-06-30,2011-09-30,2011-12-31,2012-03-31,2012-06-30,2012-09-30,2012-12-31,2013-03-31,2013-06-30,2013-09-30,2013-12-31,2014-03-31,2014-06-30,2014-09-30,2014-12-31,2015-03-31,2015-06-30,2015-09-30,2015-12-31,2016-03-31,2016-06-30,2016-09-30,2016-12-31,2017-03-31,2017-06-30,2017-09-30,2017-12-31,2018-03-31,2018-06-30,2018-09-30,2018-12-31,2019-03-31,2019-06-30,2019-09-30,2019-12-31,2020-03-31,2020-06-30,2020-09-30,2020-12-31,2021-03-31,2021-06-30,2021-09-30,2021-12-31,2022-03-31,2022-06-30,2022-09-30,2022-12-31,2023-03-31,2023-06-30,2023-09-30,2023-12-31,2024-03-31,2024-06-30,2024-09-30,2024-12-31,2025-03-31,2025-06-30,2025-09-30,2025-12-31,2026-03-31
revenue,4239303000.0,1095512000.0,3263886000.0,7127143000.0,1158209000.0,861039000.0,1006849000.0,4786959000.0,1370693000.0,1357968000.0,1582075000.0,6099896000.0,1897106000.0,2570250000.0,2885744000.0,10126115000.0,2806651000.0,2909319000.0,2954855000.0,11682636000.0,3356514000.0,3840185000.0,3541396000.0,14487118000.0,4083671000.0,4187556000.0,5118616000.0,18035340000.0,2318538000.0,2469701000.0,2172428000.0,8757428000.0,1354349000.0,1775740000.0,2118504000.0,7650632000.0,2610565000.0,2612472000.0,2644844000.0,11208320000.0,3681162000.0,4238077000.0,4781624000.0,17275399000.0,4058642000.0,4697630000.0,4303455000.0,17380000000.0,4718000000.0,1103000000.0,2246000000.0,11032000000.0,3694000000.0,4139000000.0,4765000000.0,18642000000.0,3983000000.0,7407000000.0,7593000000.0,25702000000.0,6044000000.0,5573000000.0,6212000000.0,24186000000.0,6123000000.0,6025000000.0,5965000000.0,23698000000.0,5669000000.0,5478000000.0,5847000000.0,22632000000.0,6921000000.0
cost_of_goods_sold,0.0,,0.0,0.0,0.0,0.0,0.0,0.0,0.0,0.0,0.0,0.0,0.0,0.0,0.0,0.0,0.0,0.0,0.0,0.0,0.0,0.0,0.0,0.0,0.0,0.0,0.0,0.0,0.0,0.0,0.0,0.0,0.0,0.0,0.0,0.0,0.0,0.0,0.0,0.0,0.0,0.0,0.0,0.0,0.0,0.0,0.0,0.0,0.0,0.0,0.0,0.0,0.0,0.0,0.0,0.0,0.0,0.0,0.0,0.0,0.0,0.0,0.0,0.0,0.0,0.0,0.0,0.0,0.0,0.0,0.0,0.0,0.0
gross_profit,4239303000.0,,3263886000.0,7127143000.0,1158209000.0,861039000.0,1006849000.0,4786959000.0,1370693000.0,1357968000.0,1582075000.0,6099896000.0,1897106000.0,2570250000.0,2885744000.0,10126115000.0,2806651000.0,2909319000.0,2954855000.0,11682636000.0,3356514000.0,3840185000.0,3541396000.0,14487118000.0,4083671000.0,4187556000.0,5118616000.0,18035340000.0,2318538000.0,2469701000.0,2172428000.0,8757428000.0,1354349000.0,1775740000.0,2118504000.0,7650632000.0,2610565000.0,2612472000.0,2644844000.0,11208320000.0,3681162000.0,4238077000.0,4781624000.0,17275399000.0,4058642000.0,4697630000.0,4303455000.0,17380000000.0,4718000000.0,1103000000.0,2246000000.0,11032000000.0,3694000000.0,4139000000.0,4765000000.0,18642000000.0,3983000000.0,7407000000.0,7593000000.0,25702000000.0,6044000000.0,5573000000.0,6212000000.0,24186000000.0,6123000000.0,6025000000.0,5965000000.0,23698000000.0,5669000000.0,5478000000.0,5847000000.0,22632000000.0,6921000000.0
research_and_development,2385697000.0,,800810000.0,3116250000.0,818851000.0,802261000.0,908771000.0,3567844000.0,1090368000.0,1152730000.0,1512460000.0,5296103000.0,1554618000.0,1914591000.0,1853454000.0,7707995000.0,2170610000.0,2141253000.0,2256238000.0,9871294000.0,2445455000.0,2667534000.0,2672973000.0,10463595000.0,2916530000.0,2951894000.0,3235523000.0,12391507000.0,2407236000.0,2347751000.0,8304426000.0,15076913000.0,1891959000.0,1966208000.0,2217587000.0,8481098000.0,2405581000.0,2376057000.0,2318291000.0,9847451000.0,2711876000.0,3169063000.0,3163653000.0,12379084000.0,3075440000.0,3445079000.0,3339738000.0,13192000000.0,4546000000.0,2058000000.0,2124000000.0,11092000000.0,2652000000.0,2848000000.0,3152000000.0,12029000000.0,3313000000.0,4376000000.0,3767000000.0,15166000000.0,3327000000.0,3461000000.0,3494000000.0,13943000000.0,3690000000.0,3744000000.0,3709000000.0,14947000000.0,3639000000.0,3545000000.0,3772000000.0,15427000000.0,4138000000.0
selling_general_and_admin,205210000.0,61640000.0,70893000.0,243708000.0,57946000.0,58760000.0,62775000.0,248274000.0,60423000.0,64737000.0,81310000.0,280474000.0,70037000.0,67406000.0,82260000.0,304811000.0,76269000.0,75727000.0,92870000.0,331545000.0,77985000.0,80607000.0,98654000.0,348312000.0,82862000.0,90932000.0,96931000.0,402010000.0,84297000.0,82324000.0,90959000.0,366594000.0,100531000.0,97705000.0,94397000.0,394815000.0,97238000.0,108507000.0,111717000.0,434467000.0,94698000.0,104083000.0,111284000.0,426969000.0,106672000.0,121780000.0,135758000.0,489000000.0,114000000.0,132000000.0,125000000.0,484000000.0,110000000.0,120000000.0,142000000.0,511000000.0,124000000.0,128000000.0,162000000.0,570000000.0,145000000.0,142000000.0,161000000.0,640000000.0,162000000.0,151000000.0,167000000.0,669000000.0,171000000.0,186000000.0,239000000.0,820000000.0,185000000.0
operating_expenses,2590907000.0,,871703000.0,3359958000.0,876797000.0,861021000.0,971546000.0,3816118000.0,1150791000.0,1217467000.0,1593770000.0,5576577000.0,1624655000.0,1981997000.0,1935714000.0,8012806000.0,2246879000.0,2216980000.0,2349108000.0,10202839000.0,2523440000.0,2748141000.0,2771627000.0,10811907000.0,2999392000.0,3042826000.0,3332454000.0,12793517000.0,2491533000.0,2430075000.0,8395385000.0,15443507000.0,1992490000.0,2063913000.0,2311984000.0,8875913000.0,2502819000.0,2484564000.0,2430008000.0,10281918000.0,2806574000.0,3273146000.0,3274937000.0,12806053000.0,3182112000.0,3566859000.0,3475496000.0,13681000000.0,4660000000.0,2190000000.0,2249000000.0,11576000000.0,2762000000.0,2968000000.0,3294000000.0,12540000000.0,3437000000.0,4504000000.0,3929000000.0,15736000000.0,3472000000.0,3603000000.0,3655000000.0,14583000000.0,3852000000.0,3895000000.0,3876000000.0,15616000000.0,3810000000.0,3731000000.0,4011000000.0,16247000000.0,4323000000.0
operating_income_ebit,1648396000.0,243103000.0,2392183000.0,3767185000.0,281412000.0,18000.0,35303000.0,970841000.0,219902000.0,140501000.0,-11695000.0,523319000.0,272451000.0,588253000.0,950030000.0,2113309000.0,559772000.0,692339000.0,605747000.0,1479797000.0,833074000.0,1092044000.0,769769000.0,3675211000.0,1084279000.0,1144730000.0,1786162000.0,5241823000.0,-172995000.0,39626000.0,-6222957000.0,-6686079000.0,-638141000.0,-288173000.0,-193480000.0,-1225281000.0,107746000.0,127908000.0,214836000.0,926402000.0,874588000.0,964931000.0,1506687000.0,4469346000.0,876530000.0,1130771000.0,827959000.0,3699000000.0,58000000.0,-1087000000.0,-3000000.0,-544000000.0,932000000.0,1171000000.0,1471000000.0,6102000000.0,546000000.0,2903000000.0,3664000000.0,9966000000.0,2572000000.0,1970000000.0,2557000000.0,9603000000.0,2271000000.0,2130000000.0,2089000000.0,8082000000.0,1859000000.0,1747000000.0,1836000000.0,6385000000.0,2598000000.0
depreciation_and_amortization_expense,1065545000.0,,346247000.0,1326875000.0,389329000.0,375592000.0,385330000.0,1549188000.0,431906000.0,465343000.0,500888000.0,1941926000.0,568226000.0,602944000.0,651684000.0,2516381000.0,748743000.0,808765000.0,825851000.0,3169703000.0,846388000.0,910531000.0,928800000.0,3600976000.0,946491000.0,996602000.0,1040018000.0,3997041000.0,912788000.0,909227000.0,722172000.0,3313644000.0,928891000.0,862491000.0,899511000.0,3553417000.0,816036000.0,865384000.0,846222000.0,3409387000.0,748591000.0,848674000.0,918180000.0,3435408000.0,879595000.0,957304000.0,953597000.0,3750000000.0,1000000000.0,707000000.0,823000000.0,3400000000.0,900000000.0,914000000.0,927000000.0,3651000000.0,847000000.0,911000000.0,906000000.0,3542000000.0,798000000.0,866000000.0,898000000.0,3492000000.0,1074000000.0,984000000.0,1031000000.0,4108000000.0,1013000000.0,1053000000.0,1169000000.0,4461000000.0,1193000000.0
interest_income,,,,,,,,,,,,,,,,,,,,,,,,,,,,,,,,,,,,,,,,,,,,,,,,,,,,,,,,,,,,,,,,,,,,,,,,,
interest_expense,76102000.0,,,94286000.0,,,,100901000.0,,,,129586000.0,50333000.0,51253000.0,52186000.0,210363000.0,50269000.0,50775000.0,53154000.0,213552000.0,61921000.0,61647000.0,59382000.0,235460000.0,50152000.0,51867000.0,49704000.0,201458000.0,53345000.0,60484000.0,60571000.0,237393000.0,68390000.0,71108000.0,70858000.0,281681000.0,71515000.0,70413000.0,69082000.0,274372000.0,61956000.0,63444000.0,63632000.0,245052000.0,54906000.0,49908000.0,39620000.0,185000000.0,45000000.0,54000000.0,53000000.0,205000000.0,47000000.0,45000000.0,48000000.0,178000000.0,48000000.0,48000000.0,41000000.0,179000000.0,42000000.0,35000000.0,36000000.0,148000000.0,33000000.0,,,138000000.0,47000000.0,,,235000000.0,66000000.0
tax_expense,540950000.0,69177000.0,837667000.0,1309620000.0,106065000.0,-6850000.0,361000.0,325384000.0,79142000.0,50187000.0,32093000.0,247322000.0,91749000.0,247650000.0,358343000.0,818676000.0,196125000.0,250461000.0,204698000.0,710461000.0,266294000.0,375538000.0,259057000.0,1239777000.0,369861000.0,394460000.0,611502000.0,2079828000.0,-66583000.0,-16746000.0,-2199182000.0,-2397041000.0,-239192000.0,-87719000.0,-82250000.0,-460819000.0,10865000.0,39414000.0,45439000.0,-1921397000.0,174770000.0,196205000.0,255411000.0,821958000.0,191810000.0,241525000.0,182335000.0,810000000.0,21000000.0,-235000000.0,-11000000.0,-134000000.0,204000000.0,217000000.0,334000000.0,1269000000.0,107000000.0,644000000.0,809000000.0,2142000000.0,572000000.0,433000000.0,543000000.0,2095000000.0,511000000.0,470000000.0,461000000.0,1815000000.0,414000000.0,406000000.0,353000000.0,1382000000.0,575000000.0
net_income,1089918000.0,178206000.0,1556285000.0,2436919000.0,158710000.0,-16706000.0,4196000.0,546627000.0,118015000.0,59872000.0,-70906000.0,160654000.0,133973000.0,295574000.0,540878000.0,1091123000.0,324009000.0,395778000.0,355491000.0,570279000.0,494725000.0,659692000.0,462498000.0,2197109000.0,660928000.0,706353000.0,1103618000.0,2915487000.0,-169748000.0,5268000.0,-4075739000.0,-4524515000.0,-471776000.0,-292558000.0,-190000000.0,-1096686000.0,28517000.0,23053000.0,100541000.0,2582579000.0,638589000.0,696731000.0,1190952000.0,3419040000.0,635426000.0,847841000.0,615122000.0,2735000000.0,10000000.0,-910000000.0,-42000000.0,-605000000.0,677000000.0,907000000.0,1095000000.0,4664000000.0,390000000.0,2238000000.0,2854000000.0,7759000000.0,2023000000.0,1553000000.0,2030000000.0,7594000000.0,1789000000.0,1690000000.0,1673000000.0,6403000000.0,1463000000.0,1345000000.0,1471000000.0,4980000000.0,1980000000.0
basic_eps,4.45,0.72,6.3,9.88,0.64,-0.07,0.02,2.2,0.47,0.24,-0.28,0.64,0.52,1.11,2.03,4.15,1.22,1.48,1.33,1.07,0.92,1.22,0.85,4.07,1.22,1.3,2.03,5.36,-0.31,0.01,-7.47,-8.29,-0.86,-0.53,-0.35,-1.98,0.05,0.04,0.17,4.49,1.11,1.21,2.06,5.93,1.1,1.47,1.06,4.73,0.02,-1.57,-0.07,-1.04,1.17,1.56,1.88,8.03,0.67,3.84,4.9,13.31,3.46,2.68,3.51,13.07,3.11,2.97,2.97,11.31,2.66,2.48,2.72,9.17,3.72
diluted_eps,4.37,0.71,6.2,9.72,0.63,-0.07,0.02,2.17,0.46,0.24,-0.28,0.63,0.52,1.1,2.01,4.1,1.2,1.47,1.31,1.05,0.91,1.21,0.85,4.02,1.21,1.29,2.01,5.32,-0.31,0.01,-7.47,-8.29,-0.86,-0.53,-0.35,-1.98,0.05,0.04,0.17,4.46,1.1,1.2,2.05,5.89,1.1,1.46,1.06,4.71,0.02,-1.57,-0.07,-1.04,1.16,1.55,1.88,7.99,0.67,3.81,4.86,13.22,3.45,2.66,3.48,13.0,3.1,2.95,2.95,11.25,2.65,2.46,2.7,9.12,3.7
cash_and_cash_equivalents,54231000.0,108101000.0,885977000.0,331311000.0,85214000.0,706964000.0,608511000.0,685751000.0,230084000.0,650114000.0,27832000.0,788853000.0,1668285000.0,1577438000.0,1386728000.0,615726000.0,294064000.0,280374000.0,1112623000.0,876435000.0,1108034000.0,1228016000.0,1318817000.0,1318209000.0,1667212000.0,1230140000.0,1481145000.0,2087213000.0,2127419000.0,1367395000.0,742689000.0,718506000.0,668481000.0,779722000.0,1048727000.0,1599895000.0,1546566000.0,1649443000.0,846138000.0,834228000.0,816094000.0,1008215000.0,1274132000.0,1556000000.0,1135810000.0,1160485000.0,1583105000.0,2028000000.0,2907000000.0,2417000000.0,3066000000.0,3329000000.0,3388000000.0,3880000000.0,4293000000.0,5209000000.0,4009000000.0,3073000000.0,5272000000.0,5972000000.0,5018000000.0,4764000000.0,5326000000.0,5278000000.0,5292000000.0,5431000000.0,6122000000.0,7092000000.0,6599000000.0,5216000000.0,3530000000.0,3396000000.0,3849000000.0
marketable_securities,,,,,,,,,,,,,,,,,,,,,,,,,,,,,,,,,,,,,,,,,,,,,,,,,,,,,,,,,,,,,,,,,,,,,,,,,
accounts_receivable,,,,722695000.0,,570262000.0,604260000.0,771417000.0,869042000.0,810145000.0,897732000.0,1113279000.0,1228549000.0,1279740000.0,1249649000.0,1451227000.0,1543491000.0,1375092000.0,1579841000.0,1656618000.0,1891202000.0,1808954000.0,1849517000.0,1658853000.0,1801665000.0,1902248000.0,2009091000.0,1779311000.0,1266582000.0,1304848000.0,1123111000.0,930610000.0,780625000.0,935592000.0,920189000.0,1216320000.0,1187112000.0,1114454000.0,1243535000.0,1597494000.0,1428000000.0,1608000000.0,1812000000.0,1460000000.0,2203438000.0,2001953000.0,1927996000.0,1619000000.0,1449637000.0,943354000.0,1134346000.0,1522000000.0,1828000000.0,2015000000.0,2154000000.0,2335000000.0,3213000000.0,3735000000.0,3343000000.0,2774000000.0,2455000000.0,2263000000.0,2927000000.0,2716000000.0,2688000000.0,2657000000.0,2545000000.0,2650000000.0,2621000000.0,2504000000.0,2680000000.0,2681000000.0,3597000000.0
inventory,,,,,,,,,,,,,,,,,,,,,,,,,,,,,,,,,,,,350017000.0,,336198000.0,344016000.0,483865000.0,584729000.0,670994000.0,766964000.0,859359000.0,860764000.0,853128000.0,778120000.0,767297000.0,662398000.0,676580000.0,668541000.0,629000000.0,562000000.0,516000000.0,521000000.0,584000000.0,586000000.0,739000000.0,872000000.0,1058000000.0,1131000000.0,1355000000.0,1379000000.0,1275000000.0,1154000000.0,1069000000.0,1038000000.0,985000000.0,897000000.0,934000000.0,945000000.0,1014000000.0,955000000.0
prepaid_expenses,,,,,,,,,,,,,,,,,,,,,,,,,,,,,,,,,,,,,,,,,,,,,,,,,,,,,,,,,,,,,,,,,,,,,,,,,
total_current_assets,,,,2108451000.0,,2210276000.0,1831689000.0,1839541000.0,1545857000.0,1916143000.0,1534445000.0,2527446000.0,3597603000.0,3637950000.0,3735362000.0,3253938000.0,3042033000.0,2948058000.0,4000162000.0,3589884000.0,4081018000.0,4240840000.0,4191967000.0,4072015000.0,4822476000.0,4724745000.0,4884716000.0,5416021000.0,4793368000.0,3737718000.0,2824958000.0,2592244000.0,2365812000.0,2450121000.0,2737764000.0,3385216000.0,3394076000.0,3383373000.0,2763963000.0,3279108000.0,3585097000.0,4231852000.0,4817092000.0,5057390000.0,4907885000.0,4495521000.0,4819731000.0,5273339000.0,6491049000.0,4597391000.0,5095057000.0,5862000000.0,6191000000.0,6935000000.0,7349000000.0,8584000000.0,8479000000.0,8153000000.0,10201000000.0,10475000000.0,9184000000.0,8906000000.0,10258000000.0,9935000000.0,9928000000.0,9803000000.0,10165000000.0,11230000000.0,10680000000.0,9245000000.0,7820000000.0,7656000000.0,8963000000.0
property_plant_equipment,,,,13657302000.0,,14445679000.0,15252555000.0,16139225000.0,16816935000.0,17424318000.0,18249810000.0,18680900000.0,19641452000.0,19996823000.0,20736198000.0,21288824000.0,22133841000.0,22689714000.0,23686450000.0,23337681000.0,23937970000.0,24580388000.0,25599191000.0,26148836000.0,26998437000.0,28195431000.0,29216833000.0,29172644000.0,29721721000.0,29975178000.0,24275332000.0,24210721000.0,23801433000.0,23212879000.0,22644385000.0,25707078000.0,25606460000.0,25580160000.0,25724589000.0,25665037000.0,26375648000.0,27153795000.0,27947741000.0,28075519000.0,29129003000.0,29724431000.0,30204322000.0,30364000000.0,29694054000.0,29233465000.0,28633006000.0,28599000000.0,28666000000.0,28659000000.0,28545000000.0,28426000000.0,28462000000.0,28847000000.0,29101000000.0,29429000000.0,30223000000.0,30910000000.0,31723000000.0,32297000000.0,33077000000.0,33644000000.0,34126000000.0,34212000000.0,34632000000.0,35361000000.0,42585000000.0,42341000000.0,42674000000.0
operating_lease_rou_assets,,,,,,,,,,,,,,,,,,,,,,,,,,,,,,,,,,,,,,,,,,,,566000000.0,450000000.0,,,784000000.0,,,,893000000.0,,,,333000000.0,,,,511000000.0,,,,727000000.0,,,,1005000000.0,,,,1176000000.0,
goodwill,,,,,,,,,,,,,,,,,,,,,,,,,,,,,,,,,,,,,,,,,,,,,,,,,,,,,,,,,,,,,,,,,,,,,,,,,
intangible_assets,,,,,,,,,,,,,,,,,,,,,,,,,,,,,,,,,,,,,,,,,,,,,,,,,,,,,,,,,,,,,,,,,,,,,,,,,
total_assets,,,,15951226000.0,,16792752000.0,17221293000.0,18118667000.0,18509068000.0,19465683000.0,19944859000.0,21624233000.0,23545522000.0,23959379000.0,24794678000.0,24838797000.0,25555536000.0,25998577000.0,28032491000.0,27336578000.0,28232613000.0,29077152000.0,30147270000.0,30574238000.0,32141288000.0,33302434000.0,34500883000.0,34758599000.0,34692454000.0,33884096000.0,27277247000.0,26834908000.0,26338423000.0,25830538000.0,25554921000.0,29299201000.0,29211974000.0,29263617000.0,28805305000.0,29833078000.0,30740517000.0,32092380000.0,33637736000.0,33934474000.0,35663535000.0,35751501000.0,36542269000.0,37125000000.0,37634084000.0,35221671000.0,35074018000.0,35805000000.0,36171000000.0,36885000000.0,37172000000.0,38236000000.0,38097000000.0,38139000000.0,40487000000.0,41371000000.0,41025000000.0,41487000000.0,43647000000.0,43857000000.0,44796000000.0,45224000000.0,46151000000.0,47186000000.0,46982000000.0,46284000000.0,52199000000.0,51799000000.0,53378000000.0
accounts_payable,,,,1122209000.0,,720053000.0,783764000.0,979139000.0,1134286000.0,1255657000.0,1541268000.0,1664944000.0,1838959000.0,1870172000.0,1926455000.0,2033615000.0,2289903000.0,2235637000.0,2151093000.0,2078948000.0,2258232000.0,2201940000.0,2247714000.0,2254418000.0,2647209000.0,2661473000.0,2775342000.0,2860548000.0,2182041000.0,1864483000.0,1561574000.0,1471953000.0,1182025000.0,1305651000.0,1296240000.0,1511826000.0,1556875000.0,1615170000.0,1635711000.0,1847131000.0,1915651000.0,2336952000.0,2435773000.0,2239850000.0,2452337000.0,2387403000.0,2395080000.0,2429127000.0,2892320000.0,1281166000.0,1245029000.0,1681000000.0,1945000000.0,2012000000.0,1972000000.0,2242000000.0,2660000000.0,2896000000.0,2718000000.0,2532000000.0,2438000000.0,2205000000.0,2464000000.0,2437000000.0,2389000000.0,2436000000.0,2290000000.0,2464000000.0,2353000000.0,2266000000.0,2944000000.0,2904000000.0,3186000000.0
accrued_liabilities,,,,,,,,,,,,,,,,,,,,,,,,,,,,,,,,,,,,,,,,,,,,,,,,,,,,,,,,,,,,,,,,,,,,,,,,,
deferred_revenue_current,,,,,,,,,,,,,,,,,,,,,,,,,,,,,,,,,,,,,,,,,,,,,,,,,,,,,,,,,,,,,,,,,,,,,,,,,
short_term_debt,,,,37000000.0,,37000000.0,37000000.0,37000000.0,37000000.0,0.0,0.0,220000000.0,220000000.0,220000000.0,220000000.0,0.0,,,,406579000.0,406579000.0,406579000.0,406579000.0,6579000.0,6579000.0,6579000.0,6579000.0,6579000.0,506579000.0,6579000.0,36279000.0,6579000.0,6579000.0,6579000.0,6579000.0,6579000.0,6579000.0,606454000.0,6579000.0,356235000.0,363155000.0,1262540000.0,1262874000.0,913093000.0,914861000.0,1013876000.0,1014200000.0,1014524000.0,519017000.0,21121000.0,770831000.0,781000000.0,39000000.0,39000000.0,38000000.0,37000000.0,1283000000.0,1282000000.0,1282000000.0,1283000000.0,33000000.0,34000000.0,34000000.0,34000000.0,34000000.0,534000000.0,34000000.0,532000000.0,1280000000.0,778000000.0,27000000.0,27000000.0,27000000.0
operating_lease_liabilities_current,,,,,,,,,,,,,,,,,,,,,,,,,,,,,,,,,,,,,,,,,,,,0.0,396294000.0,396547000.0,384348000.0,369365000.0,322367000.0,252642000.0,255357000.0,295000000.0,269000000.0,253000000.0,250000000.0,240000000.0,223000000.0,216000000.0,235000000.0,296000000.0,354000000.0,335000000.0,337000000.0,325000000.0,318000000.0,303000000.0,338000000.0,315000000.0,318000000.0,360000000.0,433000000.0,472000000.0,375000000.0
total_current_liabilities,,,,1764916000.0,,1189620000.0,1201151000.0,1345560000.0,1493009000.0,1558137000.0,1938300000.0,2220099000.0,2500191000.0,2476238000.0,2666323000.0,2522319000.0,2772347000.0,2679940000.0,2578383000.0,2924058000.0,3074691000.0,3020303000.0,3347333000.0,2861716000.0,3395642000.0,3537487000.0,3378746000.0,3384308000.0,3094752000.0,2277581000.0,2046961000.0,1819287000.0,1547972000.0,1712261000.0,1732963000.0,2027291000.0,2032007000.0,2722254000.0,2180024000.0,2725542000.0,2836758000.0,4297301000.0,4425147000.0,3728364000.0,4301268000.0,4414057000.0,4473713000.0,4486988000.0,4305011000.0,2154381000.0,3020042000.0,3460000000.0,3312000000.0,4002000000.0,3484000000.0,4042000000.0,6264000000.0,5768000000.0,5746000000.0,5513000000.0,4228000000.0,3731000000.0,4225000000.0,4074000000.0,4273000000.0,4628000000.0,4406000000.0,5354000000.0,5719000000.0,5175000000.0,4815000000.0,4691000000.0,5224000000.0
long_term_debt,,,,1860000000.0,,2760000000.0,2760000000.0,2760000000.0,2760000000.0,3734067000.0,3768638000.0,5003341000.0,5004725000.0,5006251000.0,5007746000.0,5009166000.0,5010523000.0,5011893000.0,6305277000.0,5905602000.0,5905917000.0,5906210000.0,5906494000.0,5906642000.0,5902952000.0,5903099000.0,5903232000.0,5903354000.0,6393690000.0,6393885000.0,6393931000.0,6648911000.0,6979029000.0,6979286000.0,6979538000.0,6979779000.0,6980008000.0,6380350000.0,6380427000.0,6030836000.0,6071604000.0,5172257000.0,5171949000.0,5170169000.0,5166050000.0,4165284000.0,4163115000.0,4160919000.0,4703152000.0,5703141000.0,4949902000.0,5035000000.0,5094000000.0,5086000000.0,5079000000.0,5072000000.0,3816000000.0,3809000000.0,3802000000.0,3795000000.0,3787000000.0,3780000000.0,3772000000.0,3765000000.0,3757000000.0,3250000000.0,3742000000.0,4220000000.0,3464000000.0,3458000000.0,7667000000.0,7909000000.0,7904000000.0
operating_lease_liabilities_noncurrent,,,,,,,,,,,,,,,,,,,,,,,,,,,,,,,,,,,,,,,,,,,,,,,,,,,,,,,,558000000.0,,,,584000000.0,,,,676000000.0,,,,725000000.0,,,,727000000.0,
deferred_tax_liabilities,,,,2813522000.0,,3033271000.0,3133252000.0,3382413000.0,3455903000.0,3423717000.0,3423942000.0,3501706000.0,3571473000.0,3681009000.0,3858243000.0,3867219000.0,3990407000.0,4160306000.0,4513188000.0,4327396000.0,4631685000.0,4970705000.0,5185083000.0,5522354000.0,5886794000.0,6162010000.0,6414546000.0,6822946000.0,6774446000.0,6798629000.0,4581844000.0,4587902000.0,4420221000.0,4103777000.0,4068345000.0,5028408000.0,5023626000.0,5059520000.0,5107477000.0,3518214000.0,3689578000.0,3865804000.0,4199921000.0,4413398000.0,4520172000.0,4738409000.0,4922804000.0,5046101000.0,,,,4859000000.0,,,,4749000000.0,,,,4710000000.0,,,,5402000000.0,,,,5866000000.0,,,,6854000000.0,
total_liabilities,,,,6936729000.0,,7533230000.0,7703553000.0,8120625000.0,8344151000.0,9334664000.0,9826735000.0,11392601000.0,11757143000.0,11882194000.0,12300830000.0,12197893000.0,12563693000.0,12643436000.0,14239021000.0,14051814000.0,14476304000.0,14692526000.0,15285690000.0,15155779000.0,16107974000.0,16594046000.0,16780985000.0,17046017000.0,17221956000.0,16456853000.0,13993024000.0,13891873000.0,13932935000.0,13773837000.0,13756609000.0,15317620000.0,15283743000.0,15361902000.0,14883041000.0,13549805000.0,13899878000.0,14639986000.0,15099266000.0,14570474000.0,15759738000.0,15121225000.0,15417989000.0,15485000000.0,16163084000.0,14833671000.0,14926018000.0,15503000000.0,15409000000.0,16004000000.0,15407000000.0,16056000000.0,16557000000.0,15827000000.0,16638000000.0,16592000000.0,15578000000.0,15230000000.0,15889000000.0,15767000000.0,16160000000.0,16065000000.0,16577000000.0,17835000000.0,17466000000.0,17046000000.0,21914000000.0,21966000000.0,22470000000.0
retained_earnings,,,,8466143000.0,,8535559000.0,8502940000.0,8866747000.0,8945648000.0,8966181000.0,8855869000.0,8870179000.0,8963475000.0,9213356000.0,9711207000.0,9789345000.0,10067541000.0,10417405000.0,10726811000.0,10175631000.0,10619426000.0,11228011000.0,11639302000.0,12168277000.0,12760895000.0,13398901000.0,14410707000.0,14763098000.0,14501816000.0,14414926000.0,10247349000.0,9870816000.0,9308463000.0,8923666000.0,8641704000.0,8398118000.0,8329951000.0,8256359000.0,8259971000.0,10593533000.0,11125051000.0,11714656000.0,12778104000.0,13543130000.0,14050676000.0,14731609000.0,15179381000.0,15648604000.0,15440142000.0,14312493000.0,14051197000.0,14170000000.0,14606000000.0,14689000000.0,15542000000.0,15919000000.0,15283000000.0,16028000000.0,17563000000.0,18472000000.0,19423000000.0,20497000000.0,22047000000.0,22634000000.0,23897000000.0,25071000000.0,26231000000.0,26941000000.0,27869000000.0,28131000000.0,29603000000.0,29765000000.0,31200000000.0
treasury_stock,,,,-5736000.0,,4173000.0,-7895000.0,7653000.0,8863000.0,8857000.0,11178000.0,11152000.0,11721000.0,12895000.0,23098000.0,24932000.0,36284000.0,39174000.0,46984000.0,33822000.0,33251000.0,30809000.0,20634000.0,15263000.0,33662000.0,51065000.0,69738000.0,70102000.0,19391000.0,22764000.0,31089000.0,23406000.0,29211000.0,29258000.0,16693000.0,23682000.0,36123000.0,28763000.0,39964000.0,33298000.0,45110000.0,42189000.0,52238000.0,42182000.0,45014000.0,31932000.0,26306000.0,26533000.0,24807000.0,10928000.0,16991000.0,7000000.0,15000000.0,16000000.0,28000000.0,20000000.0,31000000.0,38000000.0,69000000.0,78000000.0,393000000.0,694000000.0,621000000.0,907000000.0,1647000000.0,2329000000.0,2912000000.0,3882000000.0,4650000000.0,5245000000.0,5497000000.0,6158000000.0,6518000000.0
accumulated_other_comprehensive_income,,,,27787000.0,,130503000.0,291627000.0,339720000.0,405234000.0,314631000.0,375847000.0,440071000.0,485464000.0,492880000.0,372448000.0,401746000.0,429451000.0,400086000.0,451399000.0,439895000.0,427832000.0,408257000.0,425283000.0,415834000.0,402803000.0,426588000.0,387725000.0,-23056000.0,-36434000.0,-28003000.0,-34979000.0,-33338000.0,-31131000.0,-25264000.0,-25100000.0,-19010000.0,-18664000.0,-17490000.0,-17160000.0,-19297000.0,-14289000.0,-17512000.0,-19458000.0,-1358000.0,-2869000.0,-4528000.0,-3689000.0,-4652000.0,-3305000.0,-6130000.0,-7930000.0,-12000000.0,-14000000.0,-15000000.0,-13000000.0,-12000000.0,-13000000.0,-12000000.0,-6000000.0,-8000000.0,-8000000.0,-9000000.0,-7000000.0,-9000000.0,-8000000.0,-8000000.0,-9000000.0,-4000000.0,-4000000.0,-7000000.0,-5000000.0,-7000000.0,-6000000.0
total_equity,6990094000.0,,,9014497000.0,,9259522000.0,9517740000.0,9998042000.0,10164917000.0,10131019000.0,10118124000.0,10231632000.0,11788379000.0,12077185000.0,12493848000.0,12640904000.0,12991843000.0,13355141000.0,13793470000.0,13284764000.0,13756309000.0,14384626000.0,14861580000.0,15418459000.0,16033314000.0,16708388000.0,17719898000.0,17712582000.0,17470498000.0,17427243000.0,13284223000.0,12943035000.0,12405488000.0,12056701000.0,11798312000.0,13981581000.0,13928231000.0,13901715000.0,13922264000.0,16283273000.0,16840639000.0,17452394000.0,18538470000.0,19364000000.0,19903797000.0,20630276000.0,21124280000.0,21640000000.0,21471000000.0,20388000000.0,20148000000.0,20302000000.0,20762000000.0,20881000000.0,21765000000.0,22180000000.0,21540000000.0,22312000000.0,23849000000.0,24779000000.0,25447000000.0,26257000000.0,27758000000.0,28090000000.0,28636000000.0,29159000000.0,29574000000.0,29351000000.0,29516000000.0,29238000000.0,30285000000.0,29833000000.0,30908000000.0
cash_flow_from_operations,2901003000.0,,,4633249000.0,605839000.0,,,2922439000.0,620287000.0,,,2708602000.0,957488000.0,,,4578410000.0,1077605000.0,,,5236777000.0,1424935000.0,,,7329414000.0,2267673000.0,,,8649155000.0,960547000.0,,,3595165000.0,291591000.0,,,2359063000.0,898049000.0,,,4265336000.0,1552166000.0,,,7768608000.0,1607769000.0,,,8163000000.0,2585000000.0,,,5008000000.0,1870000000.0,,,8791000000.0,828000000.0,,,11093000000.0,3255000000.0,,,11340000000.0,2903000000.0,,,12143000000.0,2289000000.0,,,10044000000.0,2966000000.0
stock_based_compensation,67253000.0,,,97493000.0,26407000.0,,,95180000.0,22494000.0,,,107378000.0,27430000.0,,,128345000.0,28338000.0,,,127778000.0,30436000.0,,,134055000.0,35565000.0,,,145086000.0,33052000.0,,,130577000.0,32380000.0,,,128090000.0,30460000.0,,,133849000.0,35486000.0,,,155337000.0,39087000.0,,,175000000.0,40000000.0,,,146000000.0,35000000.0,,,152000000.0,35000000.0,,,133000000.0,34000000.0,,,177000000.0,45000000.0,,,199000000.0,50000000.0,,,216000000.0,58000000.0
depreciation_amortization_cf,1065545000.0,,346247000.0,1326875000.0,389329000.0,375592000.0,385330000.0,1549188000.0,431906000.0,465343000.0,500888000.0,1941926000.0,568226000.0,602944000.0,651684000.0,2516381000.0,748743000.0,808765000.0,825851000.0,3169703000.0,846388000.0,910531000.0,928800000.0,3600976000.0,946491000.0,996602000.0,1040018000.0,3997041000.0,912788000.0,909227000.0,722172000.0,3313644000.0,928891000.0,862491000.0,899511000.0,3553417000.0,816036000.0,865384000.0,846222000.0,3409387000.0,748591000.0,848674000.0,918180000.0,3435408000.0,879595000.0,957304000.0,953597000.0,3750000000.0,1000000000.0,707000000.0,823000000.0,3400000000.0,900000000.0,914000000.0,927000000.0,3651000000.0,847000000.0,911000000.0,906000000.0,3542000000.0,798000000.0,866000000.0,898000000.0,3492000000.0,1074000000.0,984000000.0,1031000000.0,4108000000.0,1013000000.0,1053000000.0,1169000000.0,4461000000.0,1193000000.0
capital_expenditure,,,,,,,,,,,,,,,,,,,,,,,,,,,,,,,,,,,,,,,,,,,,,,,,,,,,,,,,,,,,,,,,,,,,,,,,,
cash_flow_from_investing,-3455774000.0,,,-4966518000.0,-1025127000.0,,,-3414551000.0,-1039678000.0,,,-4902774000.0,-1427747000.0,,,-5754942000.0,-1375320000.0,,,-6119263000.0,-1159739000.0,,,-6314778000.0,-1823560000.0,,,-7513565000.0,-1804222000.0,,,-5320256000.0,-568752000.0,,,-1252944000.0,-836427000.0,,,-3987409000.0,-1456427000.0,,,-6170162000.0,-1891006000.0,,,-6177000000.0,-1531000000.0,,,-3348000000.0,-821000000.0,,,-3419000000.0,-956000000.0,,,-5056000000.0,-1567000000.0,,,-6340000000.0,-1597000000.0,,,-5967000000.0,-1430000000.0,,,-10936000000.0,-1545000000.0
cash_flow_from_financing,386085000.0,,,645105000.0,175479000.0,,,834162000.0,-36089000.0,,,2303419000.0,1349811000.0,,,1008539000.0,-26885000.0,,,1139751000.0,-38722000.0,,,-573926000.0,-90014000.0,,,-327734000.0,892572000.0,,,370921000.0,226064000.0,,,-242722000.0,-114598000.0,,,-1035711000.0,-113963000.0,,,-839103000.0,-136581000.0,,,-1513000000.0,-175000000.0,,,-359000000.0,-988000000.0,,,-3493000000.0,-1072000000.0,,,-5273000000.0,-2642000000.0,,,-5694000000.0,-1292000000.0,,,-4361000000.0,-1352000000.0,,,-2804000000.0,-968000000.0
dividends_paid,,,,,,,,,,,,,,,,,,,,,,,,,,,,,,,,,,,,,,,,,,,,,,,,,,,,,,,,,,,,,,,,,,,,,,,,,
share_repurchase,7638000.0,,,17834000.0,4904000.0,,,10986000.0,5347000.0,,,11295000.0,14981000.0,,,23922000.0,20072000.0,,,58592000.0,11024000.0,,,63784000.0,28897000.0,,,127424000.0,15459000.0,,,48791000.0,12672000.0,,,82125000.0,18628000.0,,,63408000.0,16776000.0,,,63456000.0,6248000.0,,,25000000.0,5000000.0,,,16000000.0,10000000.0,,,41000000.0,43000000.0,,,118000000.0,317000000.0,,,1038000000.0,759000000.0,,,3246000000.0,806000000.0,,,2564000000.0,418000000.0
shares_outstanding_basic,246525000.0,246536000.0,247155000.0,249632000.0,247991000.0,248207.0,249535000.0,252509000.0,250370000.0,250825000.0,251015.0,254077000.0,255200000.0,265830000.0,266053000.0,262735000.0,266674000.0,266874000.0,267941000.0,535155000.0,538717000.0,540033000.0,540941000.0,540341000.0,542278000.0,543099000.0,543984000.0,543443000.0,544998000.0,545504000.0,545920000.0,545697000.0,546715000.0,547335000.0,547838000.0,553384000.0,573935000.0,574439000.0,574783000.0,574620000.0,575775000.0,576135000.0,577254000.0,576578000.0,577207000.0,577460000.0,577839000.0,578000000.0,578000000.0,579000000.0,579000000.0,579000000.0,580000000.0,580000000.0,581000000.0,581000000.0,582000000.0,583000000.0,583000000.0,583000000.0,584000000.0,580000000.0,579000000.0,581000000.0,575000000.0,569000000.0,564000000.0,566000000.0,550000000.0,543000000.0,541000000.0,543000000.0,532000000.0
shares_outstanding_diluted,247637000.0,251135000.0,250930000.0,250542000.0,250204000.0,248207.0,252422000.0,251884000.0,253869000.0,254503000.0,251015.0,254500000.0,258819000.0,269332000.0,269292000.0,266268000.0,270242000.0,269985000.0,270982000.0,541524000.0,544526000.0,545477000.0,547152000.0,546227000.0,548071000.0,548676000.0,549518000.0,548539000.0,544998000.0,549683000.0,545920000.0,545697000.0,546715000.0,547335000.0,547838000.0,553384000.0,578593000.0,578483000.0,578736000.0,578693000.0,579726000.0,580375000.0,581559000.0,580441000.0,580222000.0,580247000.0,581271000.0,581000000.0,580000000.0,579000000.0,579000000.0,579000000.0,583000000.0,584000000.0,584000000.0,584000000.0,586000000.0,588000000.0,587000000.0,587000000.0,587000000.0,584000000.0,583000000.0,584000000.0,577000000.0,572000000.0,568000000.0,569000000.0,553000000.0,546000000.0,544000000.0,546000000.0,535000000.0
total_debt,,,,1897000000.0,,2797000000.0,2797000000.0,2797000000.0,2797000000.0,3734067000.0,3768638000.0,5223341000.0,5224725000.0,5226251000.0,5227746000.0,5009166000.0,,,,6312181000.0,6312496000.0,6312789000.0,6313073000.0,5913221000.0,5909531000.0,5909678000.0,5909811000.0,5909933000.0,6900269000.0,6400464000.0,6430210000.0,6655490000.0,6985608000.0,6985865000.0,6986117000.0,6986358000.0,6986587000.0,6986804000.0,6387006000.0,6387071000.0,6434759000.0,6434797000.0,6434823000.0,6083262000.0,6080911000.0,5179160000.0,5177315000.0,5175443000.0,5222169000.0,5724262000.0,5720733000.0,5816000000.0,5133000000.0,5125000000.0,5117000000.0,5109000000.0,5099000000.0,5091000000.0,5084000000.0,5078000000.0,3820000000.0,3814000000.0,3806000000.0,3799000000.0,3791000000.0,3784000000.0,3776000000.0,4752000000.0,4744000000.0,4236000000.0,7694000000.0,7936000000.0,7931000000.0
current_stock_price,30.73,45.27,30.9,23.04,18.99,23.6,29.09,33.95,32.47,34.42,32.58,32.08,41.66,36.81,25.04,34.81,39.32,31.94,39.79,42.96,45.61,46.97,60.46,60.01,70.21,83.76,71.05,66.19,66.05,63.18,52.64,51.29,52.73,60.73,70.55,73.88,71.4,66.37,71.06,79.4,77.57,91.85,94.3,64.58,70.64,69.29,55.38,62.76,27.0,38.43,27.48,38.51,56.36,65.2,63.86,72.64,99.07,93.59,96.58,113.96,102.44,102.97,114.83,111.66,118.95,117.91,115.96,116.46,122.7,115.49,109.16,103.22,143.46
market_cap,7610856951.972961,11367976251.182556,7752856260.051727,5772071683.7883,4750506305.397034,5858835.225261688,7342436045.219421,8550490561.49292,8244237532.985687,8760341329.82254,8177840.306072235,8165047821.044922,10782632507.11441,9913394150.680542,6743053949.3637085,9267706675.552368,10624628805.038452,8623375629.472733,10782724457.237244,23265060416.290283,24837866850.15869,25620135629.17328,33079845123.779297,32777033085.273743,38481757895.43152,45956621534.5459,39042777633.17871,36310530567.55829,35998333700.59204,34730024738.61694,28737832397.460938,27988098107.196808,28826308767.3378,33241213973.693848,38648693592.163086,40883425766.17432,41311042265.35034,38392073466.285706,41124373836.54785,45949244965.85083,44970424844.92493,53304569150.92468,54841765318.15338,37486386503.37219,40988254016.052246,40204066766.04462,32191327422.47772,36463805038.45215,15662387313.842772,22249035346.984863,15909957841.873169,22298784324.646,32858754375.457764,38078406677.24609,37293253448.48633,42423448303.22266,58054483322.14356,55031195983.88672,56693786697.387695,66897408065.7959,60134184776.30615,60133295532.22656,66943458045.95947,65207089599.609375,68633730033.87451,67444159881.5918,65863931762.69531,66265509399.41406,67855098144.53125,63059667480.46875,59381680664.0625,56356487731.93359,76749046401.97754
enterprise_value,7556625951.972961,11259875251.182556,6866879260.051727,7337760683.7883,4665292305.397034,2095894835.2252617,9530925045.21942,10661739561.49292,10811153532.985687,11844294329.82254,3748983840.306072,12599535821.044922,14339072507.11441,13562207150.680542,10584071949.363708,13661146675.552368,10330564805.038452,8343001629.472733,9670101457.237244,28700806416.290283,30042328850.15869,30704908629.17328,38074101123.7793,37372045085.27374,42724076895.43152,50636159534.5459,43471443633.17871,40133250567.55829,40771183700.59204,39763093738.61694,34425353397.46094,33925082107.196808,35143435767.3378,39447356973.69385,44586083592.163086,46269888766.17432,46751063265.35034,43729434466.285706,46665241836.54785,51502087965.85083,50589089844.92493,58731151150.92468,60002456318.15338,42013648503.37219,45933355016.052246,44222741766.04462,35785537422.47772,39611248038.45215,17977556313.842773,25556297346.984863,18564690841.87317,24785784324.646,34603754375.45776,39323406677.24609,38117253448.48633,42323448303.22266,59144483322.14356,57049195983.88672,56505786697.387695,66003408065.7959,58936184776.30615,59183295532.22656,65423458045.95947,63728089599.609375,67132730033.87451,65797159881.5918,63517931762.69531,63925509399.41406,66000098144.53125,62079667480.46875,63545680664.0625,60896487731.93359,80831046401.97754
beta_3y,1.2652,1.1306,1.0779,1.1933,1.1878,1.2025,1.206,1.2136,1.2219,1.2363,1.2442,1.256,1.26,1.2811,1.312,1.358,1.419,1.4154,1.4475,1.438,1.4384,1.4348,1.4568,1.4644,1.4813,1.4774,1.5997,1.5689,1.5422,1.4327,1.3353,1.3404,1.3517,1.3225,1.341,1.3365,1.3449,1.3406,1.3165,1.2759,1.1943,1.1751,1.1419,1.1658,1.1168,1.1032,1.0832,1.1268,1.2154,1.2628,1.2668,1.3083,1.3167,1.323,1.3367,1.3368,1.2219,1.1796,1.1598,1.1265,1.0091,0.9068,0.874,0.7648,0.7473,0.7322,0.6599,0.6192,0.7093,0.7432,0.7196,0.6758,0.5615
risk_free_rate,0.040349998474121,0.0397900009155273,0.0382699990272522,0.0224399995803833,0.0268499994277954,0.0352300000190734,0.033069999217987,0.0384299993515014,0.0383299994468689,0.0295099997520446,0.0251699995994567,0.033050000667572,0.034539999961853,0.031579999923706,0.0192400002479553,0.0187100005149841,0.0221600008010864,0.0165900003910064,0.0163699996471405,0.0175600004196166,0.0185199999809265,0.024779999256134,0.0261500000953674,0.0302600002288818,0.0272300004959106,0.0251600003242492,0.0250799989700317,0.0217000007629394,0.0193400001525878,0.0233500003814697,0.0205999994277954,0.0226900005340576,0.0178600001335144,0.0148800003528594,0.0160800004005432,0.0244600009918212,0.0239599990844726,0.0230200004577636,0.0232599997520446,0.0240499997138977,0.0274099993705749,0.0284899997711181,0.0305599999427795,0.0268600010871887,0.0241400003433227,0.02,0.0167499995231628,0.019190000295639,0.0069800001382827,0.0065299999713897,0.0067699998617172,0.0091699999570846,0.0174600005149841,0.01442999958992,0.0152900004386901,0.0151199996471405,0.0232699990272521,0.0297199988365173,0.0380399990081787,0.0387899994850158,0.0349399995803833,0.0381900000572204,0.0457299995422363,0.0386599993705749,0.042059998512268,0.0434299993515014,0.0380200004577636,0.0457299995422363,0.0424599981307983,0.0423000001907348,0.0414799976348876,0.0416300010681152,0.0431099987030029
wacc,,,,0.0743,,0.0398,0.0842,0.0854,0.0876,0.077,0.0319,0.0707,0.0773,0.0739,0.0569,0.0702,,,,0.0807,0.0803,0.0864,0.092,0.0978,0.0966,0.0962,0.1003,0.096,0.0899,0.0891,0.0798,0.0833,0.077,0.0744,0.078,0.0883,0.0863,0.0842,0.085,0.0869,0.0841,0.0855,0.0862,0.0828,0.0769,0.0732,0.0675,0.0745,0.0568,0.062,0.0582,0.0701,0.0795,0.0782,0.0795,0.0821,0.0846,0.0885,0.0959,0.0958,0.0867,0.0846,0.0907,0.078,0.0805,0.0817,0.0725,0.0768,0.0783,0.0807,0.077,0.0731,0.0702
ebitda,2713941000.0,,2738430000.0,5094060000.0,670741000.0,375610000.0,420633000.0,2520029000.0,651808000.0,605844000.0,489193000.0,2465245000.0,840677000.0,1191197000.0,1601714000.0,4629690000.0,1308515000.0,1501104000.0,1431598000.0,4649500000.0,1679462000.0,2002575000.0,1698569000.0,7276187000.0,2030770000.0,2141332000.0,2826180000.0,9238864000.0,739793000.0,948853000.0,-5500785000.0,-3372435000.0,290750000.0,574318000.0,706031000.0,2328136000.0,923782000.0,993292000.0,1061058000.0,4335789000.0,1623179000.0,1813605000.0,2424867000.0,7904754000.0,1756125000.0,2088075000.0,1781556000.0,7449000000.0,1058000000.0,-380000000.0,820000000.0,2856000000.0,1832000000.0,2085000000.0,2398000000.0,9753000000.0,1393000000.0,3814000000.0,4570000000.0,13508000000.0,3370000000.0,2836000000.0,3455000000.0,13095000000.0,3345000000.0,3114000000.0,3120000000.0,12190000000.0,2872000000.0,2800000000.0,3005000000.0,10846000000.0,3791000000.0
free_cash_flow,,,,,,,,,,,,,,,,,,,,,,,,,,,,,,,,,,,,,,,,,,,,,,,,,,,,,,,,,,,,,,,,,,,,,,,,,
